ROLLS-ROYCE APPLIED SCIENCE LABORATORY
FLAT PLATE TRANSITIONAL BOUNDARY LAYER FLOW
HOT WIRE ANEMOMETRY TEST DATA

SINGLE WIRE DATA FOR
ERCOFTAC T3A TEST CASE

RUN NUMBER  1W01104
AXIAL POSITION =   45.0 MM                      SPAN POSITION =    0.0 MM
FREE-STREAM VELOCITY =  5.05 M/S                FRICTION VELOCITY = 0.2575 M/S
FREE-STREAM TURBULENCE =  3.043 %               X-REYNOLDS NUMBER =   1.52 X10**4
FLUID DENSITY = 1.208 KG/M**3                   KINEMATIC VISCOSITY = 1.497 X10(-5)MSQ/S
BOUNDARY LAYER THICKNESS (99.0%) =  1.84 MM     DISPLACEMENT THICKNESS =  0.620 MM
MOMENTUM THICKNESS =  0.236 MM                  ENERGY THICKNESS =  0.371 MM
FORM FACTOR H = 2.621                           FORM FACTOR E = 1.570
RDELTASTAR =  209.0                             RTHETA =   79.7
SKIN FRICTION COEFFICIENT = 0.005203            CALCULATED CF = 0.005390
  Y       Y/DEL       YPLUS       U       U/UO     UPLUS      u        u/UO     u/U     u/UTAU
  MM                             M/S                         M/S        %        %
 0.179    0.097       3.075     0.824    0.163     3.200    0.0539     1.07     6.54    0.2093
 0.191    0.104       3.290     0.863    0.171     3.351    0.0580     1.15     6.72    0.2251
 0.210    0.114       3.612     0.928    0.184     3.604    0.0650     1.29     7.01    0.2525
 0.229    0.124       3.935     1.000    0.198     3.884    0.0717     1.42     7.17    0.2784
 0.254    0.138       4.365     1.106    0.219     4.296    0.0807     1.60     7.29    0.3133
 0.273    0.148       4.687     1.204    0.239     4.676    0.0909     1.80     7.55    0.3529
 0.298    0.161       5.117     1.321    0.262     5.130    0.0999     1.98     7.56    0.3880
 0.329    0.178       5.655     1.461    0.289     5.672    0.1122     2.22     7.68    0.4357
 0.354    0.192       6.085     1.575    0.312     6.116    0.1216     2.41     7.72    0.4723
 0.391    0.212       6.730     1.747    0.346     6.782    0.1385     2.74     7.93    0.5376
 0.423    0.229       7.268     1.888    0.374     7.333    0.1454     2.88     7.70    0.5646
 0.460    0.250       7.913     2.063    0.408     8.009    0.1590     3.15     7.71    0.6174
 0.504    0.273       8.665     2.238    0.443     8.691    0.1735     3.44     7.75    0.6738
 0.548    0.297       9.418     2.429    0.481     9.434    0.1821     3.61     7.50    0.7073
 0.598    0.324      10.278     2.645    0.524    10.272    0.1971     3.90     7.45    0.7654
 0.654    0.355      11.245     2.898    0.574    11.253    0.2131     4.22     7.35    0.8276
 0.716    0.389      12.321     3.166    0.627    12.295    0.2228     4.41     7.04    0.8650
 0.779    0.423      13.396     3.410    0.675    13.243    0.2273     4.50     6.66    0.8825
 0.848    0.460      14.578     3.676    0.728    14.275    0.2347     4.65     6.39    0.9115
 0.929    0.504      15.976     3.951    0.783    15.344    0.2318     4.59     5.87    0.9002
 1.010    0.548      17.373     4.144    0.821    16.091    0.2246     4.45     5.42    0.8722
 1.104    0.599      18.986     4.371    0.866    16.973    0.2123     4.21     4.86    0.8245
 1.204    0.653      20.706     4.550    0.901    17.669    0.2052     4.06     4.51    0.7969
 1.310    0.711      22.534     4.693    0.930    18.225    0.1961     3.88     4.18    0.7615
 1.429    0.775      24.577     4.822    0.955    18.725    0.1835     3.63     3.80    0.7124
 1.554    0.843      26.727     4.910    0.972    19.065    0.1794     3.55     3.65    0.6967
 1.698    0.921      29.199     4.966    0.984    19.284    0.1751     3.47     3.53    0.6801
 1.835    0.996      31.565     4.996    0.990    19.401    0.1730     3.43     3.46    0.6717
 1.979    1.074      34.037     5.026    0.995    19.516    0.1714     3.40     3.41    0.6657
 2.116    1.148      36.403     5.036    0.998    19.557    0.1691     3.35     3.36    0.6566
 2.260    1.226      38.875     5.053    1.001    19.622    0.1690     3.35     3.34    0.6563
 3.110    1.688      53.496     5.067    1.004    19.676    0.1594     3.16     3.15    0.6191
 3.960    2.149      68.118     5.058    1.002    19.641    0.1558     3.09     3.08    0.6050
 4.810    2.610      82.739     5.046    0.999    19.595    0.1552     3.07     3.08    0.6026
 5.660    3.071      97.360     5.056    1.001    19.634    0.1536     3.04     3.04    0.5965

RUN NUMBER  1W01105
AXIAL POSITION =   95.0 MM                      SPAN POSITION =    0.0 MM
FREE-STREAM VELOCITY =  5.11 M/S                FRICTION VELOCITY = 0.2206 M/S
FREE-STREAM TURBULENCE =  2.793 %               X-REYNOLDS NUMBER =   3.24 X10**4
FLUID DENSITY = 1.208 KG/M**3                   KINEMATIC VISCOSITY = 1.498 X10(-5)MSQ/S
BOUNDARY LAYER THICKNESS (99.0%) =  2.71 MM     DISPLACEMENT THICKNESS =  0.882 MM
MOMENTUM THICKNESS =  0.344 MM                  ENERGY THICKNESS =  0.545 MM
FORM FACTOR H = 2.562                           FORM FACTOR E = 1.583
RDELTASTAR =  300.8                             RTHETA =  117.4
SKIN FRICTION COEFFICIENT = 0.003723            CALCULATED CF = 0.003688
  Y       Y/DEL       YPLUS       U       U/UO     UPLUS      u        u/UO     u/U     u/UTAU
  MM                             M/S                         M/S        %        %
 0.210    0.078       3.096     0.707    0.138     3.207    0.0713     1.39    10.08    0.3233
 0.235    0.087       3.464     0.776    0.152     3.520    0.0811     1.59    10.44    0.3676
 0.260    0.096       3.832     0.846    0.166     3.836    0.0927     1.81    10.96    0.4203
 0.285    0.105       4.200     0.919    0.180     4.169    0.1042     2.04    11.33    0.4725
 0.317    0.117       4.660     1.010    0.198     4.580    0.1199     2.35    11.87    0.5438
 0.348    0.128       5.120     1.109    0.217     5.029    0.1307     2.56    11.79    0.5927
 0.385    0.142       5.672     1.223    0.239     5.544    0.1432     2.80    11.71    0.6491
 0.429    0.159       6.317     1.371    0.268     6.217    0.1632     3.19    11.90    0.7399
 0.473    0.175       6.961     1.521    0.298     6.898    0.1839     3.60    12.09    0.8338
 0.523    0.193       7.697     1.689    0.330     7.657    0.2047     4.00    12.12    0.9280
 0.579    0.214       8.525     1.895    0.371     8.590    0.2279     4.46    12.03    1.0334
 0.642    0.237       9.445     2.116    0.414     9.592    0.2471     4.83    11.68    1.1203
 0.704    0.260      10.366     2.312    0.452    10.485    0.2738     5.36    11.84    1.2414
 0.779    0.288      11.470     2.577    0.504    11.687    0.2864     5.60    11.11    1.2985
 0.860    0.318      12.666     2.832    0.554    12.839    0.3083     6.03    10.89    1.3978
 0.954    0.352      14.047     3.110    0.608    14.100    0.3226     6.31    10.37    1.4625
 1.054    0.389      15.519     3.369    0.659    15.274    0.3309     6.47     9.82    1.5004
 1.167    0.431      17.176     3.628    0.710    16.450    0.3252     6.36     8.96    1.4744
 1.292    0.477      19.016     3.905    0.764    17.707    0.3259     6.38     8.35    1.4777
 1.423    0.526      20.949     4.142    0.810    18.781    0.3110     6.08     7.51    1.4102
 1.573    0.581      23.157     4.370    0.855    19.814    0.2976     5.82     6.81    1.3492
 1.742    0.643      25.642     4.581    0.896    20.771    0.2614     5.11     5.71    1.1851
 1.923    0.710      28.311     4.763    0.932    21.594    0.2312     4.52     4.85    1.0483
 2.129    0.787      31.348     4.894    0.957    22.189    0.2049     4.01     4.19    0.9292
 2.348    0.867      34.568     4.991    0.976    22.628    0.1779     3.48     3.56    0.8066
 2.598    0.960      38.249     5.049    0.988    22.894    0.1669     3.27     3.31    0.7569
 2.842    1.050      41.838     5.085    0.995    23.054    0.1597     3.12     3.14    0.7239
 3.092    1.142      45.519     5.102    0.998    23.132    0.1565     3.06     3.07    0.7096
 3.342    1.235      49.201     5.116    1.001    23.197    0.1530     2.99     2.99    0.6936
 3.585    1.325      52.789     5.117    1.001    23.202    0.1509     2.95     2.95    0.6840
 4.885    1.805      71.931     5.125    1.002    23.236    0.1449     2.84     2.83    0.6572
 6.185    2.285      91.072     5.118    1.001    23.205    0.1426     2.79     2.79    0.6466
 7.485    2.766     110.213     5.116    1.001    23.197    0.1423     2.78     2.78    0.6452
 8.785    3.246     129.355     5.117    1.001    23.203    0.1428     2.79     2.79    0.6473

RUN NUMBER  1W01106
AXIAL POSITION =  195.0 MM                      SPAN POSITION =    0.0 MM
FREE-STREAM VELOCITY =  5.15 M/S                FRICTION VELOCITY = 0.1874 M/S
FREE-STREAM TURBULENCE =  2.434 %               X-REYNOLDS NUMBER =   6.70 X10**4
FLUID DENSITY = 1.205 KG/M**3                   KINEMATIC VISCOSITY = 1.501 X10(-5)MSQ/S
BOUNDARY LAYER THICKNESS (99.0%) =  4.17 MM     DISPLACEMENT THICKNESS =  1.277 MM
MOMENTUM THICKNESS =  0.514 MM                  ENERGY THICKNESS =  0.820 MM
FORM FACTOR H = 2.484                           FORM FACTOR E = 1.596
RDELTASTAR =  438.4                             RTHETA =  176.5
SKIN FRICTION COEFFICIENT = 0.002645            CALCULATED CF = 0.002566
  Y       Y/DEL       YPLUS       U       U/UO     UPLUS      u        u/UO     u/U     u/UTAU
  MM                             M/S                         M/S        %        %
 0.254    0.061       3.172     0.601    0.117     3.209    0.1009     1.96    16.78    0.5383
 0.285    0.068       3.562     0.658    0.128     3.509    0.1100     2.14    16.74    0.5872
 0.317    0.076       3.952     0.720    0.140     3.844    0.1303     2.53    18.09    0.6954
 0.354    0.085       4.421     0.813    0.158     4.336    0.1504     2.92    18.51    0.8028
 0.392    0.094       4.889     0.896    0.174     4.781    0.1662     3.23    18.55    0.8868
 0.442    0.106       5.513     1.007    0.195     5.374    0.1933     3.75    19.20    1.0316
 0.492    0.118       6.138     1.148    0.223     6.124    0.2221     4.31    19.35    1.1851
 0.548    0.131       6.840     1.267    0.246     6.760    0.2486     4.82    19.62    1.3265
 0.610    0.146       7.621     1.432    0.278     7.644    0.2691     5.22    18.79    1.4361
 0.679    0.163       8.479     1.616    0.314     8.622    0.3039     5.90    18.81    1.6218
 0.760    0.182       9.494     1.791    0.348     9.557    0.3332     6.47    18.61    1.7782
 0.848    0.203      10.587     2.017    0.391    10.762    0.3745     7.27    18.57    1.9983
 0.942    0.226      11.757     2.258    0.438    12.051    0.4047     7.85    17.92    2.1598
 1.054    0.253      13.162     2.488    0.483    13.276    0.4265     8.28    17.14    2.2759
 1.173    0.281      14.645     2.743    0.532    14.641    0.4439     8.62    16.18    2.3692
 1.310    0.314      16.362     3.018    0.586    16.106    0.4746     9.21    15.73    2.5330
 1.460    0.350      18.235     3.308    0.642    17.655    0.4779     9.27    14.45    2.5503
 1.629    0.391      20.343     3.581    0.695    19.109    0.4830     9.37    13.49    2.5776
 1.817    0.436      22.684     3.879    0.753    20.703    0.4669     9.06    12.04    2.4919
 2.023    0.485      25.260     4.136    0.803    22.074    0.4544     8.82    10.99    2.4252
 2.260    0.542      28.226     4.367    0.848    23.304    0.4142     8.04     9.49    2.2106
 2.517    0.604      31.426     4.588    0.890    24.485    0.3724     7.23     8.12    1.9875
 2.810    0.674      35.094     4.773    0.926    25.473    0.3089     6.00     6.47    1.6487
 3.135    0.752      39.153     4.913    0.954    26.219    0.2566     4.98     5.22    1.3694
 3.492    0.838      43.602     5.007    0.972    26.719    0.2115     4.11     4.22    1.1288
 3.898    0.935      48.675     5.085    0.987    27.135    0.1707     3.31     3.36    0.9108
 4.298    1.031      53.670     5.113    0.992    27.287    0.1525     2.96     2.98    0.8138
 4.704    1.129      58.743     5.142    0.998    27.440    0.1429     2.77     2.78    0.7628
 5.104    1.225      63.738     5.153    1.000    27.501    0.1350     2.62     2.62    0.7206
 5.504    1.321      68.734     5.157    1.001    27.519    0.1321     2.56     2.56    0.7051
 7.454    1.788      93.085     5.159    1.001    27.533    0.1260     2.45     2.44    0.6725
 9.404    2.256     117.436     5.161    1.002    27.540    0.1252     2.43     2.43    0.6680
11.354    2.724     141.788     5.166    1.003    27.569    0.1251     2.43     2.42    0.6675
13.304    3.192     166.139     5.169    1.003    27.584    0.1254     2.43     2.43    0.6692

RUN NUMBER  1W01107
AXIAL POSITION =  295.0 MM                      SPAN POSITION =    0.0 MM
FREE-STREAM VELOCITY =  5.19 M/S                FRICTION VELOCITY = 0.1750 M/S
FREE-STREAM TURBULENCE =  2.197 %               X-REYNOLDS NUMBER =  10.06 X10**4
FLUID DENSITY = 1.188 KG/M**3                   KINEMATIC VISCOSITY = 1.523 X10(-5)MSQ/S
BOUNDARY LAYER THICKNESS (99.0%) =  5.68 MM     DISPLACEMENT THICKNESS =  1.576 MM
MOMENTUM THICKNESS =  0.660 MM                  ENERGY THICKNESS =  1.064 MM
FORM FACTOR H = 2.390                           FORM FACTOR E = 1.613
RDELTASTAR =  537.4                             RTHETA =  224.9
SKIN FRICTION COEFFICIENT = 0.002272            CALCULATED CF = 0.002094
  Y       Y/DEL       YPLUS       U       U/UO     UPLUS      u        u/UO     u/U     u/UTAU
  MM                             M/S                         M/S        %        %
 0.292    0.051       3.350     0.560    0.108     3.202    0.1164     2.24    20.77    0.6650
 0.329    0.058       3.781     0.628    0.121     3.591    0.1415     2.73    22.53    0.8088
 0.367    0.065       4.211     0.697    0.134     3.981    0.1600     3.08    22.97    0.9143
 0.410    0.072       4.714     0.801    0.154     4.580    0.1951     3.76    24.34    1.1150
 0.460    0.081       5.289     0.893    0.172     5.105    0.2253     4.34    25.22    1.2876
 0.523    0.092       6.007     1.032    0.199     5.897    0.2658     5.12    25.77    1.5193
 0.585    0.103       6.725     1.182    0.228     6.758    0.2861     5.51    24.20    1.6354
 0.654    0.115       7.515     1.321    0.255     7.551    0.3025     5.83    22.89    1.7287
 0.735    0.129       8.449     1.506    0.290     8.609    0.3570     6.88    23.70    2.0403
 0.829    0.146       9.526     1.707    0.329     9.758    0.3911     7.53    22.91    2.2351
 0.929    0.164      10.675     1.906    0.367    10.894    0.4311     8.31    22.62    2.4641
 1.048    0.184      12.040     2.154    0.415    12.310    0.4880     9.40    22.66    2.7892
 1.173    0.206      13.476     2.377    0.458    13.585    0.5194    10.01    21.85    2.9685
 1.317    0.232      15.128     2.636    0.508    15.066    0.5283    10.18    20.04    3.0192
 1.479    0.260      16.995     2.921    0.563    16.696    0.5447    10.49    18.65    3.1133
 1.660    0.292      19.078     3.193    0.615    18.247    0.5678    10.94    17.78    3.2449
 1.867    0.329      21.448     3.482    0.671    19.899    0.5803    11.18    16.67    3.3168
 2.098    0.369      24.105     3.774    0.727    21.570    0.5609    10.81    14.86    3.2058
 2.354    0.414      27.050     4.027    0.776    23.015    0.5401    10.40    13.41    3.0869
 2.642    0.465      30.354     4.226    0.814    24.152    0.5144     9.91    12.17    2.9398
 2.967    0.522      34.088     4.466    0.860    25.527    0.4708     9.07    10.54    2.6906
 3.335    0.587      38.326     4.697    0.905    26.846    0.4092     7.88     8.71    2.3385
 3.742    0.659      42.994     4.875    0.939    27.862    0.3421     6.59     7.02    1.9553
 4.204    0.740      48.308     4.979    0.959    28.457    0.2766     5.33     5.56    1.5808
 4.717    0.830      54.198     5.048    0.972    28.850    0.2183     4.20     4.32    1.2474
 5.298    0.933      60.877     5.111    0.985    29.209    0.1682     3.24     3.29    0.9612
 5.879    1.035      67.556     5.197    1.001    29.700    0.1408     2.71     2.71    0.8046
 6.454    1.136      74.163     5.171    0.996    29.553    0.1295     2.49     2.50    0.7399
 7.035    1.238      80.842     5.169    0.996    29.542    0.1223     2.36     2.37    0.6991
 7.617    1.341      87.522     5.186    0.999    29.636    0.1202     2.32     2.32    0.6871
10.267    1.807     117.973     5.210    1.004    29.776    0.1128     2.17     2.17    0.6448
12.917    2.274     148.424     5.226    1.007    29.866    0.1135     2.19     2.17    0.6489
15.567    2.740     178.876     5.195    1.001    29.688    0.1130     2.18     2.17    0.6456
18.217    3.207     209.327     5.177    0.997    29.588    0.1140     2.20     2.20    0.6517

RUN NUMBER  1W01108
AXIAL POSITION =  395.0 MM                      SPAN POSITION =    0.0 MM
FREE-STREAM VELOCITY =  5.20 M/S                FRICTION VELOCITY = 0.1683 M/S
FREE-STREAM TURBULENCE =  2.001 %               X-REYNOLDS NUMBER =  13.48 X10**4
FLUID DENSITY = 1.188 KG/M**3                   KINEMATIC VISCOSITY = 1.523 X10(-5)MSQ/S
BOUNDARY LAYER THICKNESS (99.0%) =  6.86 MM     DISPLACEMENT THICKNESS =  1.820 MM
MOMENTUM THICKNESS =  0.798 MM                  ENERGY THICKNESS =  1.297 MM
FORM FACTOR H = 2.281                           FORM FACTOR E = 1.626
RDELTASTAR =  621.2                             RTHETA =  272.3
SKIN FRICTION COEFFICIENT = 0.002098            CALCULATED CF = 0.001808
  Y       Y/DEL       YPLUS       U       U/UO     UPLUS      u        u/UO     u/U     u/UTAU
  MM                             M/S                         M/S        %        %
 0.279    0.041       3.085     0.539    0.104     3.201    0.1493     2.87    27.72    0.8872
 0.317    0.046       3.499     0.601    0.116     3.573    0.1980     3.81    32.92    1.1761
 0.354    0.052       3.914     0.666    0.128     3.955    0.1978     3.81    29.72    1.1753
 0.398    0.058       4.398     0.742    0.143     4.407    0.2277     4.38    30.69    1.3524
 0.448    0.065       4.950     0.839    0.161     4.985    0.2705     5.20    32.23    1.6067
 0.510    0.074       5.641     0.940    0.181     5.582    0.2951     5.68    31.41    1.7530
 0.573    0.083       6.332     1.074    0.207     6.379    0.3391     6.52    31.58    2.0142
 0.648    0.094       7.162     1.187    0.228     7.052    0.3536     6.80    29.79    2.1009
 0.729    0.106       8.060     1.391    0.268     8.261    0.4204     8.09    30.23    2.4976
 0.823    0.120       9.096     1.542    0.297     9.162    0.4490     8.64    29.11    2.6673
 0.929    0.135      10.271     1.754    0.337    10.418    0.4870     9.37    27.77    2.8932
 1.048    0.153      11.584     1.897    0.365    11.271    0.5209    10.02    27.46    3.0947
 1.179    0.172      13.035     2.171    0.418    12.899    0.5690    10.95    26.20    3.3801
 1.329    0.194      14.693     2.454    0.472    14.577    0.6000    11.54    24.45    3.5642
 1.498    0.218      16.559     2.741    0.527    16.284    0.6277    12.08    22.90    3.7290
 1.685    0.246      18.632     2.989    0.575    17.755    0.6304    12.13    21.09    3.7453
 1.904    0.277      21.051     3.238    0.623    19.238    0.6581    12.66    20.32    3.9094
 2.142    0.312      23.676     3.493    0.672    20.748    0.6403    12.32    18.33    3.8039
 2.417    0.352      26.717     3.728    0.717    22.150    0.6445    12.40    17.29    3.8290
 2.723    0.397      30.103     3.969    0.764    23.577    0.6102    11.74    15.37    3.6249
 3.073    0.448      33.972     4.270    0.822    25.366    0.5487    10.56    12.85    3.2594
 3.460    0.504      38.257     4.476    0.861    26.590    0.5129     9.87    11.46    3.0471
 3.904    0.569      43.163     4.691    0.903    27.870    0.4531     8.72     9.66    2.6916
 4.398    0.641      48.621     4.856    0.934    28.849    0.3771     7.26     7.77    2.2402
 4.954    0.722      54.771     4.972    0.957    29.537    0.3110     5.98     6.26    1.8477
