ROLLS-ROYCE APPLIED SCIENCE LABORATORY
FLAT PLATE TRANSITIONAL BOUNDARY LAYER FLOW
HOT WIRE ANEMOMETRY TEST DATA

SINGLE WIRE DATA FOR
ERCOFTAC T3C1 TEST CASE

RUN NUMBER  1W01708
AXIAL POSITION =    5.0 MM                      SPAN POSITION =    0.0 MM
FREE-STREAM VELOCITY =  6.32 M/S                FRICTION VELOCITY = 0.4877 M/S
FREE-STREAM TURBULENCE =  7.741 %               X-REYNOLDS NUMBER =   0.21 X10**4
FLUID DENSITY = 1.188 KG/M**3                   KINEMATIC VISCOSITY = 1.523 X10(-5)MSQ/S
BOUNDARY LAYER THICKNESS (99.0%) =  0.58 MM     DISPLACEMENT THICKNESS =  0.214 MM
MOMENTUM THICKNESS =  0.079 MM                  ENERGY THICKNESS =  0.122 MM
FORM FACTOR H = 2.711                           FORM FACTOR E = 1.553
RDELTASTAR =   88.8                             RTHETA =   32.7
SKIN FRICTION COEFFICIENT = 0.011904            CALCULATED CF = 0.014576
  Y       Y/DEL       YPLUS       U       U/UO     UPLUS      u        u/UO     u/U     u/UTAU
  MM                             M/S                         M/S        %        %
 0.029    0.050       0.929     0.476    0.075     0.976    0.0649     1.03    13.62    0.1330
 0.035    0.061       1.129     0.579    0.092     1.187    0.0667     1.05    11.52    0.1367
 0.042    0.072       1.329     0.681    0.108     1.397    0.0712     1.13    10.44    0.1459
 0.048    0.083       1.529     0.784    0.124     1.608    0.0805     1.27    10.27    0.1651
 0.054    0.094       1.729     0.887    0.140     1.818    0.0980     1.55    11.05    0.2009
 0.060    0.105       1.929     0.989    0.157     2.029    0.1162     1.84    11.74    0.2382
 0.067    0.115       2.129     1.092    0.173     2.239    0.1355     2.14    12.41    0.2779
 0.073    0.126       2.330     1.195    0.189     2.450    0.1544     2.44    12.92    0.3165
 0.079    0.137       2.530     1.297    0.205     2.660    0.1683     2.66    12.98    0.3452
 0.085    0.148       2.730     1.400    0.221     2.870    0.1818     2.88    12.99    0.3728
 0.092    0.159       2.930     1.503    0.238     3.081    0.2018     3.19    13.43    0.4137
 0.098    0.170       3.130     1.612    0.255     3.306    0.2269     3.59    14.07    0.4653
 0.104    0.181       3.330     1.701    0.269     3.487    0.2414     3.82    14.20    0.4950
 0.110    0.191       3.530     1.800    0.285     3.692    0.2631     4.16    14.61    0.5394
 0.117    0.202       3.731     1.867    0.295     3.829    0.2675     4.23    14.33    0.5485
 0.123    0.213       3.931     1.961    0.310     4.021    0.2817     4.46    14.37    0.5776
 0.129    0.224       4.131     2.018    0.319     4.137    0.3001     4.75    14.87    0.6154
 0.135    0.235       4.331     2.125    0.336     4.357    0.3150     4.98    14.83    0.6460
 0.142    0.246       4.531     2.238    0.354     4.589    0.3191     5.05    14.26    0.6544
 0.148    0.256       4.731     2.331    0.369     4.779    0.3318     5.25    14.23    0.6803
 0.154    0.267       4.931     2.432    0.385     4.987    0.3387     5.36    13.93    0.6944
 0.160    0.278       5.131     2.518    0.398     5.163    0.3492     5.52    13.87    0.7161
 0.167    0.289       5.332     2.615    0.414     5.361    0.3589     5.68    13.73    0.7358
 0.173    0.300       5.532     2.705    0.428     5.547    0.3688     5.83    13.63    0.7562
 0.179    0.311       5.732     2.795    0.442     5.731    0.3808     6.02    13.62    0.7808
 0.185    0.322       5.932     2.888    0.457     5.922    0.3835     6.07    13.28    0.7863
 0.192    0.332       6.132     2.997    0.474     6.144    0.4078     6.45    13.61    0.8363
 0.198    0.343       6.332     3.077    0.487     6.308    0.4222     6.68    13.72    0.8657
 0.204    0.354       6.532     3.189    0.504     6.538    0.4075     6.45    12.78    0.8356
 0.210    0.365       6.733     3.256    0.515     6.677    0.4261     6.74    13.09    0.8738
 0.217    0.376       6.933     3.360    0.532     6.890    0.4332     6.85    12.89    0.8883
 0.223    0.387       7.133     3.446    0.545     7.066    0.4535     7.17    13.16    0.9299
 0.229    0.397       7.333     3.572    0.565     7.324    0.4522     7.15    12.66    0.9272
 0.248    0.430       7.933     3.864    0.611     7.922    0.4561     7.22    11.80    0.9352
 0.267    0.463       8.534     4.144    0.655     8.496    0.4915     7.78    11.86    1.0079
 0.285    0.495       9.134     4.440    0.702     9.104    0.4817     7.62    10.85    0.9877
 0.304    0.528       9.735     4.708    0.745     9.653    0.4886     7.73    10.38    1.0019
 0.323    0.560      10.335     4.941    0.782    10.132    0.4921     7.78     9.96    1.0091
 0.348    0.604      11.135     5.214    0.825    10.690    0.5001     7.91     9.59    1.0254
 0.367    0.636      11.736     5.393    0.853    11.057    0.4921     7.79     9.13    1.0091
 0.392    0.680      12.536     5.604    0.886    11.490    0.4867     7.70     8.69    0.9979
 0.423    0.734      13.537     5.814    0.920    11.921    0.4938     7.81     8.49    1.0126
 0.448    0.777      14.338     5.901    0.933    12.100    0.4990     7.89     8.46    1.0232
 0.479    0.831      15.338     6.033    0.954    12.371    0.4927     7.79     8.17    1.0103
 0.510    0.886      16.339     6.120    0.968    12.549    0.4996     7.90     8.16    1.0243
 0.548    0.951      17.540     6.203    0.981    12.720    0.5092     8.06     8.21    1.0442
 0.579    1.005      18.540     6.290    0.995    12.898    0.5096     8.06     8.10    1.0450
 0.617    1.070      19.741     6.301    0.997    12.920    0.5056     8.00     8.02    1.0367
 0.654    1.135      20.942     6.307    0.998    12.932    0.5090     8.05     8.07    1.0436
 0.685    1.189      21.943     6.339    1.003    12.998    0.4978     7.87     7.85    1.0207
 0.960    1.667      30.749     6.344    1.004    13.008    0.4990     7.89     7.86    1.0231
 1.235    2.144      39.555     6.321    1.000    12.961    0.4834     7.65     7.65    0.9912
 1.510    2.621      48.360     6.337    1.002    12.993    0.4958     7.84     7.82    1.0166
 1.785    3.099      57.166     6.333    1.002    12.985    0.4894     7.74     7.73    1.0034

RUN NUMBER  1W01709
AXIAL POSITION =   15.0 MM                      SPAN POSITION =    0.0 MM
FREE-STREAM VELOCITY =  6.51 M/S                FRICTION VELOCITY = 0.4351 M/S
FREE-STREAM TURBULENCE =  6.592 %               X-REYNOLDS NUMBER =   0.64 X10**4
FLUID DENSITY = 1.189 KG/M**3                   KINEMATIC VISCOSITY = 1.521 X10(-5)MSQ/S
BOUNDARY LAYER THICKNESS (99.0%) =  0.93 MM     DISPLACEMENT THICKNESS =  0.303 MM
MOMENTUM THICKNESS =  0.119 MM                  ENERGY THICKNESS =  0.188 MM
FORM FACTOR H = 2.545                           FORM FACTOR E = 1.579
RDELTASTAR =  129.6                             RTHETA =   50.9
SKIN FRICTION COEFFICIENT = 0.008921            CALCULATED CF = 0.008284
  Y       Y/DEL       YPLUS       U       U/UO     UPLUS      u        u/UO     u/U     u/UTAU
  MM                             M/S                         M/S        %        %
 0.029    0.031       0.830     0.380    0.058     0.873    0.0365     0.56     9.62    0.0839
 0.035    0.038       1.008     0.462    0.071     1.061    0.0380     0.58     8.23    0.0873
 0.042    0.044       1.187     0.543    0.083     1.249    0.0425     0.65     7.82    0.0976
 0.048    0.051       1.366     0.625    0.096     1.437    0.0477     0.73     7.64    0.1097
 0.054    0.058       1.545     0.707    0.109     1.625    0.0575     0.88     8.14    0.1322
 0.060    0.065       1.724     0.789    0.121     1.813    0.0677     1.04     8.58    0.1555
 0.067    0.071       1.902     0.871    0.134     2.001    0.0782     1.20     8.98    0.1797
 0.073    0.078       2.081     0.952    0.146     2.189    0.0912     1.40     9.58    0.2097
 0.079    0.085       2.260     1.034    0.159     2.377    0.0998     1.53     9.65    0.2294
 0.085    0.091       2.439     1.116    0.171     2.565    0.1116     1.71    10.00    0.2565
 0.092    0.098       2.618     1.198    0.184     2.753    0.1226     1.88    10.23    0.2817
 0.098    0.105       2.796     1.280    0.196     2.941    0.1324     2.03    10.35    0.3044
 0.104    0.111       2.975     1.362    0.209     3.129    0.1449     2.22    10.64    0.3329
 0.110    0.118       3.154     1.419    0.218     3.262    0.1570     2.41    11.06    0.3609
 0.117    0.125       3.333     1.492    0.229     3.429    0.1669     2.56    11.19    0.3835
 0.123    0.132       3.511     1.547    0.237     3.556    0.1723     2.64    11.14    0.3960
 0.129    0.138       3.690     1.611    0.247     3.703    0.1796     2.76    11.15    0.4128
 0.135    0.145       3.869     1.694    0.260     3.894    0.1897     2.91    11.19    0.4359
 0.142    0.152       4.048     1.761    0.270     4.046    0.2012     3.09    11.43    0.4624
 0.148    0.158       4.227     1.841    0.283     4.231    0.2060     3.16    11.19    0.4735
 0.154    0.165       4.405     1.905    0.292     4.379    0.2160     3.32    11.34    0.4964
 0.160    0.172       4.584     1.971    0.303     4.531    0.2239     3.44    11.36    0.5146
 0.167    0.178       4.763     2.039    0.313     4.686    0.2344     3.60    11.50    0.5387
 0.173    0.185       4.942     2.119    0.325     4.869    0.2397     3.68    11.31    0.5508
 0.185    0.198       5.299     2.256    0.346     5.185    0.2593     3.98    11.49    0.5958
 0.198    0.212       5.657     2.389    0.367     5.490    0.2797     4.29    11.71    0.6427
 0.217    0.232       6.193     2.592    0.398     5.957    0.3122     4.79    12.04    0.7174
 0.235    0.252       6.730     2.817    0.432     6.474    0.3269     5.02    11.60    0.7513
 0.254    0.272       7.266     3.050    0.468     7.011    0.3530     5.42    11.57    0.8113
 0.273    0.292       7.802     3.259    0.500     7.490    0.3801     5.84    11.67    0.8737
 0.292    0.312       8.339     3.485    0.535     8.009    0.3998     6.14    11.47    0.9188
 0.317    0.339       9.054     3.783    0.581     8.694    0.4172     6.40    11.03    0.9590
 0.342    0.366       9.769     4.066    0.624     9.345    0.4385     6.73    10.79    1.0079
 0.373    0.399      10.663     4.385    0.673    10.078    0.4534     6.96    10.34    1.0421
 0.404    0.433      11.557     4.684    0.719    10.765    0.4682     7.19    10.00    1.0761
 0.435    0.466      12.451     4.914    0.754    11.294    0.4831     7.42     9.83    1.1103
 0.473    0.507      13.524     5.164    0.793    11.867    0.4752     7.29     9.20    1.0921
 0.510    0.547      14.597     5.400    0.829    12.411    0.4767     7.32     8.83    1.0956
 0.548    0.587      15.669     5.613    0.862    12.901    0.4861     7.46     8.66    1.1172
 0.592    0.634      16.921     5.814    0.892    13.362    0.4832     7.42     8.31    1.1106
 0.642    0.687      18.351     6.004    0.922    13.799    0.4699     7.21     7.83    1.0800
 0.692    0.741      19.782     6.127    0.940    14.082    0.4742     7.28     7.74    1.0899
 0.748    0.801      21.391     6.259    0.961    14.386    0.4765     7.31     7.61    1.0951
 0.810    0.868      23.179     6.337    0.973    14.564    0.4748     7.29     7.49    1.0911
 0.879    0.942      25.145     6.434    0.988    14.787    0.4699     7.21     7.30    1.0799
 0.948    1.015      27.112     6.473    0.994    14.876    0.4670     7.17     7.21    1.0733
 1.017    1.089      29.079     6.472    0.993    14.873    0.4598     7.06     7.10    1.0567
 1.092    1.169      31.224     6.502    0.998    14.944    0.4608     7.07     7.09    1.0590
 1.160    1.243      33.191     6.535    1.003    15.019    0.4591     7.05     7.03    1.0551
 1.229    1.317      35.158     6.517    1.000    14.977    0.4528     6.95     6.95    1.0408
 1.704    1.826      48.746     6.555    1.006    15.066    0.4452     6.83     6.79    1.0233
 2.179    2.335      62.334     6.503    0.998    14.945    0.4367     6.70     6.72    1.0036
 2.654    2.844      75.922     6.541    1.004    15.033    0.4271     6.56     6.53    0.9815
 3.129    3.353      89.510     6.536    1.003    15.021    0.4294     6.59     6.57    0.9869

RUN NUMBER  1W01710
AXIAL POSITION =   25.0 MM                      SPAN POSITION =    0.0 MM
FREE-STREAM VELOCITY =  6.65 M/S                FRICTION VELOCITY = 0.3885 M/S
FREE-STREAM TURBULENCE =  6.160 %               X-REYNOLDS NUMBER =   1.09 X10**4
FLUID DENSITY = 1.190 KG/M**3                   KINEMATIC VISCOSITY = 1.520 X10(-5)MSQ/S
BOUNDARY LAYER THICKNESS (99.0%) =  1.25 MM     DISPLACEMENT THICKNESS =  0.390 MM
MOMENTUM THICKNESS =  0.155 MM                  ENERGY THICKNESS =  0.246 MM
FORM FACTOR H = 2.520                           FORM FACTOR E = 1.587
RDELTASTAR =  170.6                             RTHETA =   67.7
SKIN FRICTION COEFFICIENT = 0.006833            CALCULATED CF = 0.006350
  Y       Y/DEL       YPLUS       U       U/UO     UPLUS      u        u/UO     u/U     u/UTAU
  MM                             M/S                         M/S        %        %
 0.029    0.023       0.741     0.299    0.045     0.770    0.0307     0.46    10.25    0.0789
 0.035    0.028       0.901     0.363    0.055     0.935    0.0324     0.49     8.93    0.0835
 0.042    0.033       1.061     0.428    0.064     1.101    0.0369     0.56     8.63    0.0951
 0.048    0.038       1.221     0.492    0.074     1.267    0.0428     0.64     8.70    0.1102
 0.054    0.043       1.380     0.557    0.084     1.433    0.0489     0.74     8.78    0.1258
 0.060    0.048       1.540     0.621    0.093     1.599    0.0556     0.84     8.96    0.1432
 0.067    0.053       1.700     0.686    0.103     1.765    0.0627     0.94     9.15    0.1614
 0.073    0.058       1.860     0.750    0.113     1.931    0.0693     1.04     9.24    0.1783
 0.079    0.063       2.019     0.815    0.123     2.096    0.0797     1.20     9.78    0.2051
 0.085    0.068       2.179     0.879    0.132     2.262    0.0855     1.29     9.73    0.2201
 0.092    0.073       2.339     0.943    0.142     2.428    0.0949     1.43    10.06    0.2443
 0.098    0.078       2.499     1.008    0.152     2.594    0.1101     1.66    10.93    0.2834
 0.104    0.083       2.658     1.072    0.161     2.760    0.1183     1.78    11.04    0.3046
 0.110    0.088       2.818     1.137    0.171     2.926    0.1288     1.94    11.33    0.3314
 0.117    0.093       2.978     1.201    0.181     3.092    0.1348     2.03    11.22    0.3468
 0.123    0.098       3.138     1.257    0.189     3.235    0.1432     2.15    11.39    0.3685
 0.129    0.103       3.298     1.309    0.197     3.369    0.1491     2.24    11.39    0.3836
 0.135    0.109       3.457     1.364    0.205     3.509    0.1599     2.41    11.73    0.4115
 0.142    0.114       3.617     1.429    0.215     3.677    0.1708     2.57    11.95    0.4396
 0.148    0.119       3.777     1.472    0.221     3.789    0.1732     2.61    11.76    0.4457
 0.154    0.124       3.937     1.528    0.230     3.932    0.1849     2.78    12.10    0.4758
 0.167    0.134       4.256     1.636    0.246     4.210    0.1975     2.97    12.07    0.5083
 0.179    0.144       4.576     1.749    0.263     4.501    0.2131     3.21    12.19    0.5486
 0.192    0.154       4.895     1.870    0.281     4.814    0.2299     3.46    12.29    0.5917
 0.210    0.169       5.374     2.045    0.308     5.262    0.2544     3.83    12.44    0.6548
 0.229    0.184       5.854     2.214    0.333     5.697    0.2796     4.21    12.63    0.7197
 0.248    0.199       6.333     2.398    0.361     6.172    0.2950     4.44    12.30    0.7593
 0.273    0.219       6.972     2.637    0.397     6.788    0.3271     4.92    12.40    0.8419
 0.298    0.239       7.611     2.893    0.435     7.445    0.3625     5.45    12.53    0.9331
 0.323    0.259       8.250     3.139    0.472     8.079    0.3879     5.84    12.36    0.9984
 0.348    0.279       8.889     3.378    0.508     8.694    0.4066     6.12    12.04    1.0464
 0.379    0.304       9.688     3.647    0.549     9.386    0.4291     6.45    11.77    1.1043
 0.417    0.334      10.647     3.979    0.599    10.240    0.4753     7.15    11.95    1.2234
 0.448    0.359      11.446     4.241    0.638    10.915    0.4853     7.30    11.44    1.2491
 0.492    0.394      12.564     4.558    0.686    11.730    0.5016     7.55    11.01    1.2910
 0.529    0.424      13.522     4.826    0.726    12.420    0.4975     7.48    10.31    1.2804
 0.579    0.465      14.801     5.126    0.771    13.192    0.5086     7.65     9.92    1.3091
 0.629    0.505      16.079     5.406    0.813    13.914    0.5180     7.79     9.58    1.3333
 0.685    0.550      17.517     5.671    0.853    14.596    0.5033     7.57     8.87    1.2952
 0.742    0.595      18.954     5.889    0.886    15.157    0.4979     7.49     8.46    1.2815
 0.810    0.650      20.712     6.067    0.913    15.615    0.4897     7.37     8.07    1.2604
 0.879    0.705      22.469     6.232    0.937    16.038    0.4731     7.12     7.59    1.2175
 0.954    0.765      24.386     6.359    0.957    16.365    0.4723     7.11     7.43    1.2156
 1.035    0.831      26.463     6.457    0.971    16.618    0.4656     7.00     7.21    1.1984
 1.129    0.906      28.860     6.522    0.981    16.785    0.4615     6.94     7.08    1.1877
 1.229    0.986      31.416     6.573    0.989    16.916    0.4508     6.78     6.86    1.1602
 1.323    1.061      33.813     6.616    0.995    17.027    0.4512     6.79     6.82    1.1612
 1.423    1.141      36.369     6.638    0.999    17.085    0.4465     6.72     6.73    1.1492
 1.523    1.222      38.925     6.655    1.001    17.129    0.4366     6.57     6.56    1.1236
 1.623    1.302      41.481     6.652    1.001    17.121    0.4432     6.67     6.66    1.1406
 2.235    1.793      57.138     6.652    1.001    17.120    0.4272     6.43     6.42    1.0994
 2.848    2.285      72.795     6.652    1.001    17.119    0.4063     6.11     6.11    1.0457
 3.467    2.781      88.612     6.648    1.000    17.110    0.4142     6.23     6.23    1.0660
 4.079    3.273     104.269     6.665    1.003    17.153    0.4095     6.16     6.14    1.0538

RUN NUMBER  1W01601
AXIAL POSITION =   45.0 MM                      SPAN POSITION =    0.0 MM
FREE-STREAM VELOCITY =  6.87 M/S                FRICTION VELOCITY = 0.3512 M/S
FREE-STREAM TURBULENCE =  5.791 %               X-REYNOLDS NUMBER =   2.05 X10**4
FLUID DENSITY = 1.200 KG/M**3                   KINEMATIC VISCOSITY = 1.508 X10(-5)MSQ/S
BOUNDARY LAYER THICKNESS (99.0%) =  1.64 MM     DISPLACEMENT THICKNESS =  0.490 MM
MOMENTUM THICKNESS =  0.198 MM                  ENERGY THICKNESS =  0.318 MM
FORM FACTOR H = 2.471                           FORM FACTOR E = 1.603
RDELTASTAR =  223.0                             RTHETA =   90.2
SKIN FRICTION COEFFICIENT = 0.005233            CALCULATED CF = 0.004638
  Y       Y/DEL       YPLUS       U       U/UO     UPLUS      u        u/UO     u/U     u/UTAU
  MM                             M/S                         M/S        %        %
 0.029    0.018       0.676     0.238    0.035     0.677    0.0290     0.42    12.19    0.0825
 0.035    0.021       0.821     0.289    0.042     0.823    0.0290     0.42    10.04    0.0826
 0.042    0.025       0.967     0.340    0.050     0.968    0.0315     0.46     9.27    0.0898
 0.048    0.029       1.112     0.391    0.057     1.114    0.0359     0.52     9.18    0.1023
 0.054    0.033       1.258     0.443    0.064     1.260    0.0379     0.55     8.56    0.1078
 0.060    0.037       1.404     0.494    0.072     1.406    0.0449     0.65     9.08    0.1277
 0.067    0.041       1.549     0.545    0.079     1.552    0.0504     0.73     9.24    0.1434
 0.073    0.044       1.695     0.596    0.087     1.698    0.0575     0.84     9.64    0.1637
 0.079    0.048       1.840     0.648    0.094     1.844    0.0638     0.93     9.85    0.1815
