ROLLS-ROYCE APPLIED SCIENCE LABORATORY
FLAT PLATE TRANSITIONAL BOUNDARY LAYER FLOW
HOT WIRE ANEMOMETRY TEST DATA

SINGLE WIRE DATA FOR
ERCOFTAC T3C2 TEST CASE

RUN NUMBER  1W01906
AXIAL POSITION =   45.0 MM                      SPAN POSITION =    0.0 MM
FREE-STREAM VELOCITY =  5.67 M/S                FRICTION VELOCITY = 0.3121 M/S
FREE-STREAM TURBULENCE =  2.397 %               X-REYNOLDS NUMBER =   1.66 X10**4
FLUID DENSITY = 1.179 KG/M**3                   KINEMATIC VISCOSITY = 1.534 X10(-5)MSQ/S
BOUNDARY LAYER THICKNESS (99.0%) =  1.62 MM     DISPLACEMENT THICKNESS =  0.520 MM
MOMENTUM THICKNESS =  0.207 MM                  ENERGY THICKNESS =  0.328 MM
FORM FACTOR H = 2.517                           FORM FACTOR E = 1.587
RDELTASTAR =  192.2                             RTHETA =   76.4
SKIN FRICTION COEFFICIENT = 0.006062            CALCULATED CF = 0.005149
  Y       Y/DEL       YPLUS       U       U/UO     UPLUS      u        u/UO     u/U     u/UTAU
  MM                             M/S                         M/S        %        %
 0.029    0.018       0.590     0.188    0.033     0.603    0.0097     0.17     5.17    0.0312
 0.035    0.022       0.717     0.229    0.040     0.733    0.0122     0.21     5.31    0.0389
 0.042    0.026       0.844     0.269    0.047     0.863    0.0119     0.21     4.42    0.0381
 0.048    0.030       0.972     0.310    0.055     0.993    0.0128     0.23     4.13    0.0410
 0.054    0.033       1.099     0.350    0.062     1.122    0.0141     0.25     4.04    0.0453
 0.060    0.037       1.226     0.391    0.069     1.252    0.0157     0.28     4.01    0.0502
 0.067    0.041       1.353     0.431    0.076     1.382    0.0172     0.30     3.99    0.0551
 0.073    0.045       1.480     0.472    0.083     1.512    0.0192     0.34     4.07    0.0616
 0.079    0.049       1.607     0.513    0.090     1.642    0.0215     0.38     4.19    0.0687
 0.085    0.053       1.735     0.553    0.098     1.772    0.0242     0.43     4.38    0.0777
 0.092    0.057       1.862     0.594    0.105     1.902    0.0269     0.47     4.53    0.0861
 0.098    0.060       1.989     0.634    0.112     2.032    0.0295     0.52     4.65    0.0945
 0.104    0.064       2.116     0.675    0.119     2.162    0.0322     0.57     4.78    0.1032
 0.110    0.068       2.243     0.715    0.126     2.292    0.0348     0.61     4.86    0.1114
 0.117    0.072       2.370     0.756    0.133     2.422    0.0373     0.66     4.93    0.1195
 0.123    0.076       2.498     0.796    0.140     2.552    0.0395     0.70     4.97    0.1267
 0.129    0.080       2.625     0.837    0.148     2.681    0.0418     0.74     4.99    0.1339
 0.135    0.084       2.752     0.878    0.155     2.811    0.0452     0.80     5.15    0.1449
 0.148    0.091       3.006     0.959    0.169     3.071    0.0511     0.90     5.33    0.1636
 0.160    0.099       3.261     1.025    0.181     3.285    0.0565     1.00     5.51    0.1809
 0.173    0.107       3.515     1.097    0.193     3.513    0.0612     1.08     5.58    0.1959
 0.192    0.119       3.896     1.215    0.214     3.891    0.0678     1.20     5.58    0.2172
 0.210    0.130       4.278     1.318    0.232     4.223    0.0763     1.35     5.79    0.2446
 0.229    0.142       4.659     1.438    0.254     4.608    0.0839     1.48     5.83    0.2688
 0.254    0.157       5.168     1.598    0.282     5.118    0.0971     1.71     6.08    0.3111
 0.273    0.169       5.550     1.708    0.301     5.471    0.1044     1.84     6.11    0.3344
 0.304    0.188       6.185     1.902    0.335     6.092    0.1173     2.07     6.17    0.3759
 0.329    0.204       6.694     2.070    0.365     6.633    0.1250     2.21     6.04    0.4006
 0.360    0.223       7.330     2.270    0.400     7.273    0.1421     2.51     6.26    0.4552
 0.398    0.246       8.093     2.507    0.442     8.032    0.1536     2.71     6.13    0.4920
 0.435    0.269       8.856     2.733    0.482     8.756    0.1671     2.95     6.11    0.5352
 0.479    0.296       9.746     3.003    0.530     9.620    0.1808     3.19     6.02    0.5791
 0.523    0.324      10.636     3.251    0.573    10.415    0.1867     3.29     5.74    0.5980
 0.573    0.354      11.653     3.506    0.618    11.232    0.2002     3.53     5.71    0.6414
 0.623    0.385      12.671     3.741    0.660    11.986    0.2044     3.60     5.46    0.6547
 0.685    0.424      13.942     4.013    0.708    12.857    0.2129     3.75     5.30    0.6820
 0.748    0.463      15.214     4.257    0.751    13.638    0.2169     3.83     5.10    0.6949
 0.823    0.509      16.740     4.517    0.797    14.472    0.2141     3.78     4.74    0.6859
 0.898    0.556      18.266     4.748    0.837    15.212    0.2084     3.68     4.39    0.6676
 0.985    0.610      20.046     4.961    0.875    15.894    0.1994     3.52     4.02    0.6389
 1.079    0.668      21.954     5.155    0.909    16.515    0.1881     3.32     3.65    0.6026
 1.179    0.730      23.989     5.311    0.937    17.014    0.1766     3.12     3.33    0.5659
 1.292    0.799      26.278     5.437    0.959    17.420    0.1683     2.97     3.10    0.5392
 1.417    0.877      28.821     5.533    0.976    17.726    0.1595     2.81     2.88    0.5109
 1.548    0.958      31.491     5.599    0.988    17.938    0.1542     2.72     2.75    0.4939
 1.698    1.051      34.543     5.640    0.995    18.068    0.1547     2.73     2.74    0.4956
 1.842    1.140      37.468     5.662    0.999    18.141    0.1513     2.67     2.67    0.4849
 1.992    1.232      40.520     5.667    0.999    18.155    0.1511     2.67     2.67    0.4842
 2.135    1.321      43.445     5.672    1.000    18.171    0.1488     2.62     2.62    0.4768
 2.285    1.414      46.497     5.671    1.000    18.168    0.1469     2.59     2.59    0.4707
 3.135    1.940      63.791     5.676    1.001    18.185    0.1404     2.48     2.47    0.4497
 3.985    2.466      81.086     5.679    1.002    18.196    0.1377     2.43     2.42    0.4411
 4.835    2.992      98.381     5.681    1.002    18.200    0.1356     2.39     2.39    0.4346
 5.685    3.518     115.675     5.679    1.002    18.196    0.1359     2.40     2.39    0.4354

RUN NUMBER  1W01801
AXIAL POSITION =   95.0 MM                      SPAN POSITION =    0.0 MM
FREE-STREAM VELOCITY =  6.03 M/S                FRICTION VELOCITY = 0.2741 M/S
FREE-STREAM TURBULENCE =  2.054 %               X-REYNOLDS NUMBER =   3.85 X10**4
FLUID DENSITY = 1.214 KG/M**3                   KINEMATIC VISCOSITY = 1.490 X10(-5)MSQ/S
BOUNDARY LAYER THICKNESS (99.0%) =  2.29 MM     DISPLACEMENT THICKNESS =  0.707 MM
MOMENTUM THICKNESS =  0.284 MM                  ENERGY THICKNESS =  0.452 MM
FORM FACTOR H = 2.488                           FORM FACTOR E = 1.593
RDELTASTAR =  286.1                             RTHETA =  115.0
SKIN FRICTION COEFFICIENT = 0.004127            CALCULATED CF = 0.003385
  Y       Y/DEL       YPLUS       U       U/UO     UPLUS      u        u/UO     u/U     u/UTAU
  MM                             M/S                         M/S        %        %
 0.029    0.013       0.533     0.150    0.025     0.547    0.0116     0.19     7.77    0.0425
 0.035    0.015       0.648     0.182    0.030     0.665    0.0125     0.21     6.86    0.0456
 0.042    0.018       0.763     0.214    0.036     0.783    0.0142     0.23     6.61    0.0517
 0.048    0.021       0.878     0.247    0.041     0.900    0.0140     0.23     5.67    0.0510
 0.054    0.024       0.993     0.279    0.046     1.018    0.0148     0.25     5.31    0.0541
 0.060    0.026       1.108     0.311    0.052     1.136    0.0159     0.26     5.10    0.0579
 0.067    0.029       1.223     0.344    0.057     1.254    0.0174     0.29     5.05    0.0633
 0.073    0.032       1.338     0.376    0.062     1.372    0.0191     0.32     5.09    0.0698
 0.079    0.035       1.453     0.408    0.068     1.490    0.0214     0.35     5.23    0.0779
 0.085    0.037       1.568     0.441    0.073     1.607    0.0235     0.39     5.33    0.0857
 0.092    0.040       1.683     0.473    0.078     1.725    0.0261     0.43     5.52    0.0952
 0.098    0.043       1.798     0.505    0.084     1.843    0.0288     0.48     5.70    0.1050
 0.104    0.045       1.913     0.538    0.089     1.961    0.0316     0.52     5.88    0.1153
 0.110    0.048       2.028     0.570    0.094     2.079    0.0338     0.56     5.93    0.1232
 0.117    0.051       2.143     0.602    0.100     2.197    0.0376     0.62     6.24    0.1370
 0.129    0.056       2.373     0.667    0.110     2.432    0.0441     0.73     6.61    0.1608
 0.142    0.062       2.603     0.731    0.121     2.668    0.0511     0.85     6.98    0.1864
 0.154    0.067       2.833     0.796    0.132     2.904    0.0565     0.94     7.10    0.2062
 0.173    0.076       3.178     0.893    0.148     3.257    0.0631     1.05     7.06    0.2301
 0.192    0.084       3.522     0.972    0.161     3.544    0.0726     1.20     7.47    0.2648
 0.210    0.092       3.867     1.057    0.175     3.854    0.0794     1.32     7.52    0.2898
 0.235    0.103       4.327     1.171    0.194     4.272    0.0922     1.53     7.88    0.3365
 0.260    0.114       4.787     1.286    0.213     4.690    0.1024     1.70     7.96    0.3735
 0.285    0.125       5.247     1.406    0.233     5.130    0.1132     1.88     8.05    0.4131
 0.317    0.138       5.822     1.570    0.260     5.728    0.1312     2.17     8.36    0.4788
 0.348    0.152       6.396     1.729    0.287     6.307    0.1478     2.45     8.55    0.5391
 0.385    0.168       7.086     1.929    0.320     7.036    0.1628     2.70     8.44    0.5939
 0.429    0.188       7.891     2.166    0.359     7.901    0.1815     3.01     8.38    0.6622
 0.473    0.207       8.696     2.376    0.394     8.668    0.1962     3.25     8.26    0.7156
 0.523    0.229       9.615     2.607    0.432     9.512    0.2178     3.61     8.35    0.7947
 0.579    0.253      10.650     2.874    0.476    10.485    0.2394     3.97     8.33    0.8732
 0.642    0.281      11.800     3.173    0.526    11.574    0.2542     4.21     8.01    0.9275
 0.704    0.308      12.949     3.450    0.572    12.585    0.2772     4.59     8.03    1.0112
 0.779    0.341      14.329     3.747    0.621    13.671    0.2891     4.79     7.71    1.0545
 0.860    0.376      15.823     4.050    0.671    14.773    0.2969     4.92     7.33    1.0831
 0.954    0.417      17.548     4.358    0.722    15.900    0.2987     4.95     6.85    1.0898
 1.054    0.461      19.387     4.642    0.769    16.936    0.2997     4.97     6.46    1.0932
 1.167    0.510      21.456     4.934    0.818    17.998    0.2854     4.73     5.79    1.0412
 1.292    0.565      23.755     5.203    0.862    18.982    0.2662     4.41     5.12    0.9712
 1.423    0.622      26.170     5.420    0.898    19.774    0.2489     4.12     4.59    0.9080
 1.573    0.688      28.929     5.618    0.931    20.494    0.2169     3.59     3.86    0.7913
 1.742    0.762      32.033     5.759    0.954    21.009    0.1882     3.12     3.27    0.6867
 1.923    0.841      35.367     5.871    0.973    21.417    0.1669     2.77     2.84    0.6090
 2.129    0.931      39.160     5.944    0.985    21.684    0.1514     2.51     2.55    0.5524
 2.348    1.027      43.184     5.996    0.994    21.873    0.1446     2.40     2.41    0.5276
 2.598    1.136      47.782     6.021    0.998    21.964    0.1382     2.29     2.30    0.5041
 2.842    1.242      52.266     6.034    1.000    22.012    0.1368     2.27     2.27    0.4992
 3.092    1.352      56.864     6.035    1.000    22.016    0.1347     2.23     2.23    0.4913
 3.342    1.461      61.463     6.036    1.000    22.019    0.1319     2.19     2.19    0.4811
 3.585    1.568      65.946     6.043    1.001    22.046    0.1304     2.16     2.16    0.4758
 4.885    2.136      89.858     6.041    1.001    22.037    0.1244     2.06     2.06    0.4539
 6.185    2.705     113.770     6.042    1.001    22.040    0.1227     2.03     2.03    0.4477
 7.485    3.273     137.682     6.044    1.002    22.047    0.1236     2.05     2.05    0.4509
 8.785    3.842     161.593     6.054    1.003    22.084    0.1239     2.05     2.05    0.4521

RUN NUMBER  1W01802
AXIAL POSITION =  195.0 MM                      SPAN POSITION =    0.0 MM
FREE-STREAM VELOCITY =  6.50 M/S                FRICTION VELOCITY = 0.2426 M/S
FREE-STREAM TURBULENCE =  1.687 %               X-REYNOLDS NUMBER =   8.50 X10**4
FLUID DENSITY = 1.213 KG/M**3                   KINEMATIC VISCOSITY = 1.491 X10(-5)MSQ/S
BOUNDARY LAYER THICKNESS (99.0%) =  3.27 MM     DISPLACEMENT THICKNESS =  0.972 MM
MOMENTUM THICKNESS =  0.394 MM                  ENERGY THICKNESS =  0.630 MM
FORM FACTOR H = 2.467                           FORM FACTOR E = 1.599
RDELTASTAR =  423.5                             RTHETA =  171.7
SKIN FRICTION COEFFICIENT = 0.002789            CALCULATED CF = 0.002278
  Y       Y/DEL       YPLUS       U       U/UO     UPLUS      u        u/UO     u/U     u/UTAU
  MM                             M/S                         M/S        %        %
 0.029    0.009       0.472     0.115    0.018     0.476    0.0119     0.18    10.31    0.0490
 0.035    0.011       0.574     0.140    0.022     0.578    0.0125     0.19     8.88    0.0514
 0.042    0.013       0.675     0.165    0.025     0.681    0.0142     0.22     8.61    0.0586
 0.048    0.015       0.777     0.190    0.029     0.783    0.0150     0.23     7.88    0.0617
 0.054    0.017       0.879     0.215    0.033     0.886    0.0163     0.25     7.57    0.0670
 0.060    0.018       0.981     0.240    0.037     0.988    0.0176     0.27     7.34    0.0726
 0.067    0.020       1.082     0.265    0.041     1.091    0.0190     0.29     7.18    0.0783
 0.073    0.022       1.184     0.290    0.045     1.193    0.0207     0.32     7.17    0.0855
 0.079    0.024       1.286     0.314    0.048     1.296    0.0234     0.36     7.45    0.0965
 0.085    0.026       1.387     0.339    0.052     1.398    0.0254     0.39     7.48    0.1046
 0.092    0.028       1.489     0.364    0.056     1.501    0.0288     0.44     7.91    0.1186
 0.098    0.030       1.591     0.389    0.060     1.603    0.0298     0.46     7.65    0.1227
 0.104    0.032       1.692     0.414    0.064     1.706    0.0329     0.51     7.95    0.1356
 0.110    0.034       1.794     0.439    0.068     1.808    0.0362     0.56     8.24    0.1490
 0.123    0.038       1.998     0.489    0.075     2.013    0.0430     0.66     8.81    0.1774
 0.135    0.041       2.201     0.538    0.083     2.218    0.0518     0.80     9.62    0.2135
 0.154    0.047       2.506     0.613    0.094     2.526    0.0601     0.92     9.80    0.2476
 0.173    0.053       2.811     0.687    0.106     2.833    0.0700     1.08    10.18    0.2885
 0.192    0.059       3.116     0.762    0.117     3.141    0.0811     1.25    10.64    0.3341
 0.210    0.064       3.422     0.834    0.128     3.436    0.0938     1.44    11.25    0.3865
 0.235    0.072       3.828     0.917    0.141     3.779    0.1042     1.60    11.36    0.4294
 0.260    0.080       4.235     1.010    0.155     4.164    0.1180     1.82    11.68    0.4865
 0.292    0.089       4.744     1.096    0.169     4.516    0.1330     2.05    12.13    0.5480
 0.323    0.099       5.252     1.218    0.187     5.019    0.1480     2.28    12.15    0.6100
 0.360    0.110       5.863     1.371    0.211     5.649    0.1685     2.59    12.29    0.6945
 0.398    0.122       6.473     1.549    0.238     6.386    0.1940     2.99    12.52    0.7996
 0.442    0.135       7.185     1.746    0.269     7.194    0.2238     3.44    12.82    0.9225
 0.492    0.150       7.999     1.952    0.300     8.044    0.2450     3.77    12.55    1.0099
 0.548    0.168       8.914     2.199    0.338     9.063    0.2774     4.27    12.62    1.1433
 0.610    0.187       9.931     2.434    0.374    10.029    0.3014     4.64    12.38    1.2420
 0.679    0.208      11.050     2.712    0.417    11.177    0.3322     5.11    12.25    1.3691
 0.754    0.231      12.271     3.015    0.464    12.425    0.3581     5.51    11.88    1.4758
 0.835    0.256      13.593     3.313    0.510    13.655    0.3840     5.91    11.59    1.5825
 0.929    0.284      15.118     3.619    0.557    14.913    0.4102     6.31    11.34    1.6907
 1.035    0.317      16.848     3.958    0.609    16.312    0.4353     6.70    11.00    1.7939
 1.148    0.351      18.678     4.278    0.658    17.631    0.4463     6.87    10.43    1.8394
 1.279    0.391      20.814     4.614    0.710    19.014    0.4578     7.05     9.92    1.8868
 1.417    0.433      23.052     4.941    0.760    20.365    0.4436     6.83     8.98    1.8280
 1.579    0.483      25.697     5.274    0.812    21.736    0.4206     6.47     7.97    1.7333
 1.754    0.537      28.544     5.582    0.859    23.004    0.3955     6.09     7.08    1.6298
 1.948    0.596      31.698     5.813    0.895    23.957    0.3556     5.47     6.12    1.4656
 2.160    0.661      35.156     6.014    0.926    24.785    0.3089     4.75     5.14    1.2731
 2.404    0.736      39.123     6.179    0.951    25.464    0.2531     3.89     4.10    1.0430
 2.673    0.818      43.496     6.305    0.970    25.983    0.2032     3.13     3.22    0.8374
 2.967    0.908      48.277     6.388    0.983    26.329    0.1682     2.59     2.63    0.6933
 3.298    1.009      53.667     6.446    0.992    26.565    0.1434     2.21     2.22    0.5909
 3.629    1.110      59.058     6.476    0.997    26.688    0.1300     2.00     2.01    0.5359
 3.954    1.210      64.347     6.487    0.998    26.733    0.1223     1.88     1.88    0.5038
 4.285    1.311      69.738     6.505    1.001    26.810    0.1183     1.82     1.82    0.4875
 4.617    1.413      75.129     6.508    1.002    26.822    0.1168     1.80     1.79    0.4814
 6.267    1.918     101.981     6.510    1.002    26.831    0.1106     1.70     1.70    0.4559
 7.917    2.422     128.833     6.512    1.002    26.839    0.1084     1.67     1.66    0.4468
 9.567    2.927     155.685     6.517    1.003    26.860    0.1101     1.69     1.69    0.4539
11.217    3.432     182.537     6.521    1.004    26.875    0.1096     1.69     1.68    0.4517

RUN NUMBER  1W01803
AXIAL POSITION =  295.0 MM                      SPAN POSITION =    0.0 MM
FREE-STREAM VELOCITY =  6.72 M/S                FRICTION VELOCITY = 0.2305 M/S
FREE-STREAM TURBULENCE =  1.483 %               X-REYNOLDS NUMBER =  13.21 X10**4
FLUID DENSITY = 1.206 KG/M**3                   KINEMATIC VISCOSITY = 1.500 X10(-5)MSQ/S
BOUNDARY LAYER THICKNESS (99.0%) =  4.06 MM     DISPLACEMENT THICKNESS =  1.161 MM
MOMENTUM THICKNESS =  0.484 MM                  ENERGY THICKNESS =  0.778 MM
FORM FACTOR H = 2.400                           FORM FACTOR E = 1.608
RDELTASTAR =  520.1                             RTHETA =  216.7
SKIN FRICTION COEFFICIENT = 0.002353            CALCULATED CF = 0.001827
  Y       Y/DEL       YPLUS       U       U/UO     UPLUS      u        u/UO     u/U     u/UTAU
  MM                             M/S                         M/S        %        %
 0.029    0.007       0.446     0.102    0.015     0.442    0.0123     0.18    12.05    0.0533
 0.035    0.009       0.542     0.124    0.018     0.537    0.0147     0.22    11.90    0.0639
 0.042    0.010       0.638     0.146    0.022     0.633    0.0157     0.23    10.79    0.0683
 0.048    0.012       0.734     0.168    0.025     0.728    0.0169     0.25    10.06    0.0732
 0.054    0.013       0.830     0.190    0.028     0.823    0.0183     0.27     9.66    0.0795
 0.060    0.015       0.926     0.212    0.032     0.919    0.0193     0.29     9.12    0.0838
 0.067    0.016       1.022     0.234    0.035     1.014    0.0221     0.33     9.46    0.0959
 0.073    0.018       1.118     0.256    0.038     1.109    0.0241     0.36     9.41    0.1044
 0.079    0.019       1.214     0.278    0.041     1.205    0.0265     0.39     9.56    0.1151
